Time (sec),Link Budget (kbps),Antenna X,Antenna Y,Antenna Z,Satelite X,Satelite Y,Satelite Z,Slant Distance (km)
0.0,2284587.0296788285,5505.389605,6058.278337,-3694.999427,3689.773564,4222.72217,3028.891599,7202.5300124381
494.1888326999999,1843936.613039974,5301.242925858686,6289.285964534231,-3606.491005712038,2319.817224,4865.712767,3698.167005,8017.074810546608
554.1888326999999,1716886.1811609,5275.94105083496,6316.782763959928,-3595.5212998936786,1865.808701,4981.749611,3862.256016,8308.414930439581
614.1888329999999,1600424.6666501833,5250.529039713226,6344.158641676426,-3584.5038442309287,1402.384261,5072.667625,4006.812686,8605.404947216839
674.1888329999999,1494233.6779949698,5225.007379208416,6371.413073354955,-3573.438849740549,932.0104707,5138.4804,4131.480818,8905.938048281278
734.1888329999999,1397758.6252782287,5199.3765577535705,6398.54553740252,-3562.326528184186,457.1066771,5179.368385,4236.050692,9208.159632531464
794.1888329999999,1310315.460041131,5173.637065998183,6425.555514423767,-3551.167092284438,-19.97676063,5195.6658,4320.451362,9510.448484673061
854.1888329999999,1231164.9344770615,5147.78939667201,6452.442487368102,-3539.9607556658093,-496.9769412,5187.846254,4384.741366,9811.396147325637
914.188833,1159561.8887521168,5121.83404457565,6479.20594153959,-3528.707732850621,-971.7335203,5156.50757,4429.098291,10109.78601964509
974.188833,1094786.2380582262,5095.771506571067,6505.845364606816,-3517.408239254909,-1442.200491,5102.356322,4453.807591,10404.573088130395
1034.188833,1036161.0460284138,5069.602281572076,6532.36024661268,-3506.0624911842933,-1906.454806,5026.192483,4459.251039,10694.86481706747
1094.188833,983061.7902847055,5043.326870534798,6558.750079984165,-3494.6707058298425,-2362.702095,4928.894567,4445.895151,10979.903467617425
1154.188833,934919.8236128305,5016.945776448069,6585.014359542059,-3483.233101263915,-2809.27978,4811.405518,4414.27986,11259.049949108876
1214.188833,891222.1593187852,4990.45950432381,6611.152582510615,-3471.7498964359847,-3244.657942,4674.719569,4365.00765,11531.769205641514
1274.188833,851509.0489543396,4963.868561187353,6637.164248527182,-3460.221311168445,-3667.438274,4519.870184,4298.733329,11797.617087659075
1334.188833,815370.341884344,4937.173456067753,6663.048859651783,-3448.647566152409,-4076.35148,4347.919174,4216.154538,12056.228619693662
1394.188833,782441.2755628475,4910.374699988025,6688.805920376646,-3437.0288829434794,-4470.253434,4159.946995,4118.003068,12307.30756227379
1454.188833,752398.1108883051,4883.47280595537,6714.43493763569,-3425.3654839575083,-4848.120379,3957.044221,4005.037018,12550.617149078962
1514.188833,724953.8633893409,4856.468288951355,6739.935420813964,-3413.657592466337,-5209.043443,3740.304141,3878.033793,12785.971902900958
1574.188833,699854.2776763494,4829.361665922052,6765.306881757034,-3401.905432593529,-5552.222675,3510.816431,3737.783925,13013.230407730473
1634.188833,676874.1186790435,4802.153455768144,6790.548834780338,-3390.1092293100737,-5876.960802,3269.661807,3585.085678,13232.288947412806
1694.188833,655813.8097964457,4774.844179334991,6815.660796678474,-3378.269208430078,-6182.656865,3017.907591,3420.740395,13443.075917935523
1754.188833,636496.4210488321,4747.434359402658,6840.642286734454,-3366.3855966064502,-6468.799851,2756.604091,3245.548528,13645.546918865513
1814.188833,618764.9910605064,4719.924520675913,6865.492826728906,-3354.458621326557,-6734.962443,2486.781712,3060.3063,13839.680464979116
1874.188833,602480.1614028923,4692.315189774175,6890.211940949228,-3342.4885109078696,-6980.794954,2209.448722,2865.802933,14025.474230593814
1934.188833,587518.0946830008,4664.606895221436,6914.799156198693,-3330.475494493593,-7206.019509,1925.589567,2662.818384,14202.941775123212
1994.188833,573768.6482552353,4636.8001674361485,6939.254001805514,-3318.419802048279,-7410.424523,1636.163691,2452.121533,14372.10968806996
2054.188833,561133.7746625404,4608.895538721063,6963.576009631844,-3306.321664353424,-7593.859503,1342.104762,2234.468776,14533.01511387476
2114.188833,549526.1240168991,4580.893543253043,6987.764714082748,-3294.181313003053,-7756.230186,1044.320257,2010.602951,14685.703592710175
2174.188833,538867.8222225477,4552.794717072841,7011.819652115102,-3281.998980399283,-7897.494034,743.6913444,1781.25258,14830.227200921641
2234.188833,529089.405326946,4524.599598074834,7035.740363246478,-3269.7748997478784,-8017.65607,441.0730108,1547.131351,14966.642928902686
2294.188833,520128.8882906093,4496.308725996724,7059.526389563935,-3257.5093050537816,-8116.765072,137.2943871,1308.937834,15095.011295239889
2354.188833,511930.953102542,4467.922642409215,7083.177275732804,-3245.2024311166388,-8194.910096,-166.8407631,1067.355371,15215.395141793932
2414.188833,504446.2399911784,4439.441890705637,7106.692569005392,-3232.8545135263003,-8252.217328,-470.5534292,823.0521261,15327.858601593378
2474.188833,497630.7291334286,4410.867016091544,7130.071819229657,-3220.4657886583145,-8288.847247,-773.088643,576.6812584,15432.46621097563
2534.188833,491445.20119626593,4382.198565574287,7153.314578857823,-3208.0364936694014,-8304.992087,-1073.714697,328.8811994,15529.282151089195
2594.188833,485854.7670590561,4353.4370879525295,7176.420402954941,-3195.56686649291,-8300.87358,-1371.722312,80.27601373,15618.36959903951
2654.188833,480828.4577823648,4324.58313380575,7199.388849207417,-3183.05714583427,-8276.740968,-1666.42378,-168.5241763,15699.790180743605
2714.188833,476338.8686304724,4295.637255483701,7222.219477931473,-3170.5075711664185,-8232.869254,-1957.152085,-416.9227173,15773.60349431838
2774.188833,472361.84884182044,4266.6000070958335,7244.911852081562,-3157.918382725212,-8169.557709,-2243.260027,-664.3359157,15839.866725022013
2834.188833,468876.2338920328,4237.471944500692,7267.46553725874,-3145.289821504833,-8087.128576,-2524.119362,-910.1925063,15898.63430731563
2894.188833,464553.10925549467,4208.253625295274,7289.88010171898,-3132.62212925318,-7939.798306,-2908.441304,-1251.694232,15972.439230576463
2918.3479218,461868.95832652814,4196.463464713317,7298.865975862767,-3127.510468832203,-7812.08519,-3176.120857,-1493.237622,16018.78390138148
2978.3479218,459944.184796144,4167.119489813968,7321.084680028421,-3114.788298167565,-7666.514452,-3436.54064,-1731.362087,16052.266596238478
3038.3479218,458440.0064124961,4137.6866050577455,7343.163237048657,-3102.027580360734,-7503.504192,-3689.143523,-1965.541578,16078.579416567844
3098.3479218,457348.22751271824,4108.165373876836,7365.101224274801,-3089.2285596894726,-7323.493029,-3933.388136,-2195.260178,16097.759320221183
3158.3479218,456662.55532505625,4078.556361394644,7386.898221749099,-3076.391481164769,-7126.939801,-4168.748373,-2420.011724,16109.840062948895
3218.3479218,456378.5346264449,4048.860134414964,7408.553812212754,-3063.516590526156,-6914.323412,-4394.712944,-2639.299462,16114.852148339303
3278.3479218,456493.5002629441,4019.077261411131,7430.067581113918,-3050.604134236997,-6686.142798,-4610.784984,-2852.635728,16112.822797545341
3338.3479218,457006.5459370324,3989.208312515144,7451.439116615626,-3037.6543594797768,-6442.917013,-4816.481736,-3059.541662,16103.77595184767
3398.3479218,457918.50958889275,3959.253859506748,7472.668009603679,-3024.6675141513624,-6185.185435,-5011.334287,-3259.546969,16087.732292024519
3458.3479218,459231.97417905065,3929.214475802487,7493.753853694476,-3011.643846858264,-5913.508075,-5194.887393,-3452.189722,16064.709289853226
3518.3479218,460951.2848452068,3899.0907364447294,7514.696245242795,-2998.5836069118704,-5628.465986,-5366.699371,-3637.016213,16034.721273351694
3578.3479218,463082.5810799482,3868.883218090663,7535.494783349517,-2985.4870443236787,-5330.661775,-5526.34209,-3813.580871,15997.779532537383
3638.3479218,465633.8460432004,3838.592499001245,7556.149069869302,-2972.354409800509,-5020.720203,-5673.401036,-3981.446231,15953.892435990621
3698.3479218,468614.97185527877,3808.2191590301454,7576.658709418212,-2959.185954739706,-4699.288868,-5807.475493,-4140.182983,15903.065589976135
3758.3479218,472037.8431129489,3777.763779612642,7597.023309381278,-2945.9819312243244,-4367.038972,-5928.178812,-4289.370084,15845.302017188296
3818.3479218,475916.4385493281,3747.226943754488,7617.242479920016,-2932.7425920183023,-4024.666155,-6035.138804,-4428.594965,15780.602377024527
3878.3479218,480266.95252364886,3716.6092360207513,7637.31583397989,-2919.4681905616253,-3672.891406,-6127.998246,-4557.453823,15708.965223431882
3938.3479218,485107.9382709874,3685.9112425246303,7657.242987297721,-2906.1589809654743,-3312.462019,-6206.415516,-4675.552006,15630.387297847832
3998.3479218,490460.47339229373,3655.133550916225,7677.023558409042,-2892.8152180073607,-2944.152611,-6270.065373,-4782.504519,15544.863883668382
4058.3479218,496348.3514088382,3624.276750371293,7696.657168655408,-2879.4371571262486,-2568.766175,-6318.639872,-4877.936632,15452.389199226323
4118.3479218,502798.30040545185,3593.3414315799737,7716.143442191628,-2866.025054417665,-2187.135157,-6351.849445,-4961.484629,15352.956858335276
4178.3479218,509840.2314677598,3562.328186735474,7735.482005992979,-2852.5791666288,-1800.122557,-6369.424154,-5032.796685,15246.560405173677
4238.3479218,517507.52103932097,3531.2376095227373,7754.672489862332,-2839.099751153586,-1408.623024,-6371.115113,-5091.533901,15133.193915337277
4298.3479218,525837.3292783003,3500.0702951070725,7773.714526437248,-2825.587066027778,-1013.563928,-6356.696112,-5137.371501,15012.852693097464
4358.3479218,534870.958763897,3468.82684012277,7792.607751197005,-2812.0413699240075,-615.9063979,-6325.96544,-5170.000201,14885.534065999916
4418.3479218,544654.2571809053,3437.5078426616724,7811.35180246958,-2798.462922146836,-216.6462854,-6278.747928,-5189.127775,14751.23829530513
4478.3479218,555238.0689677628,3406.113902261727,7829.946321438568,-2784.8519826277843,183.1849617,-6214.897211,-5194.480816,14609.969607128229
4538.3479218,566678.73911928,3374.645619895514,7848.390952150052,-2771.208811920367,582.5195612,-6134.298238,-5185.806727,14461.737378596412
4598.3479218,579038.6751554145,3343.103597958733,7866.685341519423,-2757.533671195094,980.2528268,-6036.87002,-5162.875933,14306.557477395658
4658.3479218,592386.9706849289,3311.4884402586786,7884.82913933813,-2743.826822234476,1375.242814,-5922.568637,-5125.484337,14144.453789272744
4718.3479218,606800.0953526236,3279.800752002682,7902.821998280389,-2730.0885274280145,1766.310234,-5791.390497,-5073.456042,13975.459946718349
4778.3479218,622362.6532686506,3248.04113978652,7920.663573909835,-2716.3190497671776,2152.23869,-5643.375866,-5006.646323,13799.621297517615
4838.3479218,639168.2137970709,3216.210211582804,7938.353524686103,-2702.518652840362,2531.775311,-5478.612637,-4924.944882,13616.997116142105
4898.3479218,657320.2123334027,3184.3085767293496,7955.891511971386,-2688.687600827854,2903.631839,-5297.240354,-4828.279368,13427.663110835012
4958.3479218,676932.9181612101,3152.3368459175017,7973.277200036896,-2674.8261584967668,3266.486266,-5099.454462,-4716.619167,13231.714245981122
5018.3479218,698132.4606807996,3120.29563118045,7990.510256069307,-2660.9345911959736,3618.985099,-4885.510752,-4589.97946,13029.26791080049
5078.3479218,721057.8971984425,3088.185545881513,8007.59035017712,-2647.013164851029,3959.746345,-4655.729972,-4448.425512,12820.467474046523
5138.3479218,745862.2955445773,3056.0072047023887,8024.517155396974,-2633.062145959077,4287.363317,-4410.502549,-4292.077183,12605.486258655856
5198.3479218,772713.7904158337,3023.761223631401,8041.290347699914,-2619.081801583752,4600.40936,-4150.293355,-4121.113606,12384.531968037008
5258.3479218,801796.5508337716,2991.4482199516992,8057.909605997587,-2605.0723993500624,4897.443603,-3875.646439,-3935.77799,12157.851604962403
5318.3479218,833311.5712936552,2959.068812229439,8074.374612148391,-2591.034207439271,5177.017819,-3587.189611,-3736.382462,11925.736897629193
5378.3479218,867477.1572795692,2926.6236203019484,8090.685050963564,-2576.9674945837605,5437.684504,-3285.638774,-3523.31287,11688.530279793255
5438.3479218,904528.9325534131,2894.1132652658616,8106.840610213219,-2562.872530061886,5678.006233,-2971.801836,-3297.033429,11446.63141419197
5498.3479218,944719.124805797,2861.538369465219,8122.840980632322,-2548.7495836928247,5896.566344,-2646.582059,-3058.09108,11200.504282068401
5558.3479218,988314.8086261016,2828.89955647957,8138.685855926609,-2534.5989258314103,6091.980981,-2310.980638,-2807.119416,10950.684802098196
5618.3479218,1035594.6764210532,2796.1974511120206,8154.374932778452,-2520.420827362951,6262.912469,-1966.09832,-2544.841983,10697.788942968391
5678.3479218,1086843.7814954396,2763.432679377286,8169.907910852662,-2506.2155596980565,6408.083954,-1613.135849,-2272.074799,10442.521248080913
5738.3479218,1142345.550903278,2730.605868489695,8185.284492802246,-2491.9833947674283,6526.295185,-1253.39301,-1989.727857,10185.683630203412
5798.3479218,1202370.2010631312,2697.7176468511907,8200.504384274089,-2477.724605016665,6616.43925,-888.2660616,-1698.805436,9928.184239458948
5858.3479218,1267158.527796822,2664.7686440392995,8215.567293914599,-2463.4394634010405,6677.520019,-519.2433684,-1400.40499,9671.04612724874
5918.3479218,1336899.9305764125,2631.7594907950797,8230.47293337527,-2449.1282433802826,6708.669958,-147.8990401,-1095.714446,9415.415274456047
5978.3479218,1367403.7988482579,2598.690819011041,8245.221017318221,-2434.791218913336,6712.758423,26.63310567,-950.9746977,9309.80402480672
6006.493955999999,1449245.9343245935,2583.1579569359,8252.084981563885,-2428.0568987366023,6696.992724,400.4799717,-637.3789476,9043.11148036514
6066.493955999999,1533677.65079553,2550.0029948675506,8266.60108942163,-2413.682462851214,6646.420776,776.745842,-316.7141186,8790.668148764298
6126.493955999999,1624547.2999724294,2516.790079319758,8280.958950162234,-2399.28290105638,6560.698231,1153.744249,9.661088304,8541.275881246576
6186.493955999999,1721399.6274628302,2483.519846085648,8295.158288933906,-2384.8584890021675,6439.688501,1529.736707,340.314087,8297.515602661932
6246.493955999999,1823294.727546141,2450.192932055573,8309.198833919441,-2370.4095028143506,6283.499912,1902.952138,673.7492394,8062.328545728553
6306.493955999999,1928660.3538023648,2416.8099752049266,8323.080316341413,-2355.9362190891247,6092.522517,2271.614615,1008.425723,7839.007022691
6366.493955999999,2035152.974099485,2383.3716145819244,8336.80247046732,-2341.438914887811,5867.46144,2633.979879,1342.783248,7631.157210203806
6426.493955999999,2139565.1883733906,2349.878490295373,8350.365033614677,-2326.917867731556,5609.362934,2988.380152,1675.275794,7442.625532392522
6486.493955999999,2237832.145757094,2316.331243502421,8363.767746156038,-2312.373355596012,5319.629075,3333.275631,2004.412591,7277.3820632184725
6546.493955999999,2325195.151480995,2282.7305163962783,8377.01035152397,-2297.8056569060227,5000.017252,3667.309729,2328.804432,7139.359079921502
6606.493955999999,2396564.5813788185,2249.076952193926,8390.092596215962,-2283.215050530294,4652.621729,3989.363871,2647.212205,7032.250971710883
6666.493955999999,2447077.445493964,2215.3711951238024,8403.014229799282,-2268.601815776045,4279.83633,4298.606782,2958.593554,6959.2922215177705
6726.493955999999,2472772.172949674,2181.613890413473,8415.77500491577,-2253.9662323836765,3884.299755,4594.53303,3262.143046,6923.040585999148
6786.493955999999,2471231.1495348373,2147.805684277276,8428.37467728656,-2239.3085805214014,3468.827676,4876.986242,3557.321435,6925.1988027598045
6846.493955999999,2442012.1973687788,2113.947223903952,8440.813005716782,-2224.629140779893,3036.337994,5146.164063,3843.870632,6966.506002346714
6906.493955999999,2386734.1656841566,2080.039157444258,8453.089752100153,-2209.928194166908,2589.776888,5402.604175,4121.8127,7046.718212112198
6966.493955999999,2308789.8774951813,2046.082133998556,8465.204681423558,-2195.206022101905,2132.05316,5647.153063,4391.433208,7164.6787987270445
7026.493955999999,2214294.8336477373,2012.0768036043903,8477.157561771526,-2180.4629064106634,1672.447436,5877.770421,4649.696726,7315.95805203665
7085.66796,2106626.6325491765,1978.492931652084,8488.78695046881,-2165.902515324517,1200.86585,6097.559614,4900.645816,7500.585135290431
7145.66796,1993525.8149792335,1944.3935838175787,8500.41728817114,-2151.1186380825457,725.7896108,6299.720009,5137.39988,7710.4193365884885
7205.66796,1879088.8674015095,1910.2478756532664,8511.884902824926,-2136.314661176849,248.7789951,6485.267464,5360.582199,7941.732784255948
7265.66796,1766469.9355040987,1876.056460808672,8523.189574906213,-2121.490867999189,-228.8477907,6655.225876,5570.85756,8190.978856412235
7325.66796,1657872.4142674347,1841.819993808284,8534.331088010247,-2106.6475423206743,-705.9892831,6810.602567,5768.908036,8454.9954342307
7385.66796,1554706.2116707999,1807.5391300390177,8545.309228855622,-2091.78496828632,-1181.734418,6952.371088,5955.414842,8731.01557966028
7445.66796,1457763.9464745126,1773.2145257376758,8556.123787288352,-2076.903430409611,-1655.336943,7081.459971,6131.045275,9016.652399615321
7505.66796,1367384.732948637,1738.8468379783828,8566.774556285905,-2062.003213567058,-2126.191647,7198.746041,6296.44371,9309.868929425751
7565.66796,1283591.4380001067,1704.436724660011,8577.261331961163,-2047.0846029927425,-2593.812933,7305.051127,6452.22579,9608.94094485007
7625.66796,1206198.1378844664,1669.984844493575,8587.58391356632,-2032.1478842728536,-3057.815918,7401.141205,6598.975,9912.417898472782
7685.667960000001,1134890.135631537,1635.4918569896397,8597.742103496728,-2017.193343340226,-3517.900033,7487.727244,6737.241024,10219.08518665845
7745.667960000001,1069281.1912367796,1600.9584224456792,8607.735707294687,-2002.221266468864,-3973.834956,7565.467172,6867.539369,10527.92945657123
7805.667960000001,1008952.9941596589,1566.3852019334438,8617.56453365315,-1987.231940268459,-4425.448652,7634.968539,6990.351878,10838.107723947342
7865.667960000001,953481.3992291067,1531.772857286309,8627.22839441941,-1972.225651678909,-4872.61727,7696.791586,7106.127839,11148.920470550767
7925.667960000001,902453.1194179753,1497.1220510865971,8636.727104598674,-1957.202687964821,-5315.256657,7751.452479,7215.285474,11459.788562905744
7985.667960000001,855475.7278324584,1462.4334466528978,8646.06048235763,-1942.1633367100103,-5753.315257,7799.426581,7318.213646,11770.233650149088
8045.667960000001,812183.084580455,1427.7077080273732,8655.228349027904,-1927.107885812001,-6186.768177,7841.151646,7415.273681,12079.861639190442
8105.667960000001,772237.716509477,1392.9454999630425,8664.230529109504,-1912.036623476513,-6615.612252,7877.030882,7506.801208,12388.348826481671
8165.667960000001,735331.2264871737,1358.147487911054,8673.066850274156,-1896.9498382119384,-7039.861933,7907.435834,7593.107983,12695.430301361892
8225.66796,701183.4790344739,1323.3143380079557,8681.737143368626,-1881.84781882383,-7459.54588,7932.709079,7674.483644,13000.890264810145
8285.66796,669541.0696628746,1288.4467170629343,8690.241242417942,-1866.7308544093623,-7874.704133,7953.166718,7751.197386,13304.553956943426
8345.66796,640175.4175018489,1253.545292545053,8698.578984628572,-1851.599234351804,-8285.385762,7969.100667,7823.499537,13606.280921496049
8405.66796,612880.70162617,1218.610732570478,8706.75021039155,-1836.453248314976,-8691.646928,7980.78076,7891.623028,13905.959390836719
8465.66796,587471.781749984,1183.6437058896834,8714.754763285524,-1821.293186237704,-9093.549275,7988.45666,7955.784767,14203.50160365292
8525.66796,563782.1900745473,1148.6448818746533,8722.59249007975,-1806.1193383282737,-9491.158605,7992.359609,8016.186895,14498.83988604604
8585.66796,541662.2418849758,1113.6149305060646,8730.263240737033,-1790.9319950588704,-9884.543776,7992.704013,8073.017962,14791.923380793889
8645.66796,520977.29105044156,1078.5545223604656,8737.76686841659,-1775.7314471600212,-10273.7758,7989.68888,8126.45399,15082.715301186397
